Experiment Parameter is: scenario:maintain-current-luminosity, solar-luminosity = 0.8, albedo-of-surface = 0.4, start-%-whites = 50, albedo-of-whites = 0.75, start-%-blacks = 50, albedo-of-blacks = 0.25, total ticks = 1000.
        tick        num-white-daisy        num-black-daisy        luminosity        global-temperature
           0                    420                    421             0.800                       0.0
           1                    410                    426             0.800                       2.8
           2                    398                    439             0.800                       3.7
           3                    382                    456             0.800                       4.7
           4                    359                    470             0.800                       6.0
           5                    337                    492             0.800                       7.6
           6                    312                    519             0.800                       9.4
           7                    290                    545             0.800                      11.6
           8                    273                    564             0.800                      13.7
           9                    255                    584             0.800                      15.6
          10                    240                    596             0.800                      17.4
          11                    223                    616             0.800                      19.0
          12                    213                    626             0.800                      20.6
          13                    202                    637             0.800                      21.9
          14                    185                    656             0.800                      23.0
          15                    171                    668             0.800                      24.4
          16                    154                    684             0.800                      25.8
          17                    134                    705             0.800                      27.2
          18                    114                    721             0.800                      28.9
          19                     99                    736             0.800                      30.6
          20                     87                    746             0.800                      32.2
          21                     68                    769             0.800                      33.6
          22                     54                    776             0.800                      35.1
          23                     46                    779             0.800                      36.5
          24                     33                    788             0.800                      37.6
          25                     18                    793             0.800                      38.6
          26                     20                    780             0.800                      39.8
          27                     25                    759             0.800                      40.2
          28                     26                    739             0.800                      40.0
          29                     27                    713             0.800                      39.7
          30                     29                    693             0.800                      39.2
          31                     35                    665             0.800                      38.7
          32                     38                    651             0.800                      38.0
          33                     42                    659             0.800                      37.4
          34                     47                    667             0.800                      37.0
          35                     47                    665             0.800                      36.7
          36                     47                    677             0.800                      36.5
          37                     45                    686             0.800                      36.5
          38                     47                    690             0.800                      36.7
          39                     49                    682             0.800                      36.8
          40                     49                    693             0.800                      36.6
          41                     51                    686             0.800                      36.7
          42                     55                    682             0.800                      36.6
          43                     57                    686             0.800                      36.3
          44                     57                    686             0.800                      36.1
          45                     56                    691             0.800                      36.1
          46                     56                    695             0.800                      36.1
          47                     56                    704             0.800                      36.2
          48                     53                    704             0.800                      36.3
          49                     55                    697             0.800                      36.5
          50                     55                    693             0.800                      36.4
          51                     54                    707             0.800                      36.3
          52                     50                    725             0.800                      36.5
          53                     48                    727             0.800                      36.9
          54                     49                    729             0.800                      37.2
          55                     45                    733             0.800                      37.3
          56                     45                    725             0.800                      37.5
          57                     45                    711             0.800                      37.6
          58                     45                    704             0.800                      37.5
          59                     45                    703             0.800                      37.4
          60                     52                    692             0.800                      37.3
          61                     62                    675             0.800                      36.9
          62                     65                    675             0.800                      36.1
          63                     65                    684             0.800                      35.7
          64                     65                    677             0.800                      35.5
          65                     65                    690             0.800                      35.4
          66                     65                    688             0.800                      35.4
          67                     66                    692             0.800                      35.4
          68                     68                    686             0.800                      35.4
          69                     69                    685             0.800                      35.3
          70                     68                    683             0.800                      35.2
          71                     68                    680             0.800                      35.1
          72                     67                    688             0.800                      35.1
          73                     69                    689             0.800                      35.2
          74                     69                    699             0.800                      35.2
          75                     67                    701             0.800                      35.3
          76                     69                    708             0.800                      35.4
          77                     72                    711             0.800                      35.4
          78                     75                    716             0.800                      35.4
          79                     75                    727             0.800                      35.3
          80                     73                    727             0.800                      35.4
          81                     73                    720             0.800                      35.5
          82                     69                    716             0.800                      35.5
          83                     64                    713             0.800                      35.6
          84                     63                    704             0.800                      35.8
          85                     56                    709             0.800                      35.8
          86                     51                    702             0.800                      36.2
          87                     48                    698             0.800                      36.5
          88                     47                    709             0.800                      36.7
          89                     48                    698             0.800                      36.9
          90                     48                    687             0.800                      36.9
          91                     44                    682             0.800                      36.8
          92                     39                    685             0.800                      36.8
          93                     38                    685             0.800                      37.1
          94                     39                    700             0.800                      37.2
          95                     40                    703             0.800                      37.4
          96                     44                    684             0.800                      37.5
          97                     50                    686             0.800                      37.2
          98                     48                    690             0.800                      36.9
          99                     46                    696             0.800                      36.8
         100                     47                    689             0.800                      36.9
         101                     45                    691             0.800                      36.8
         102                     44                    691             0.800                      36.9
         103                     42                    681             0.800                      37.0
         104                     43                    696             0.800                      37.0
         105                     45                    712             0.800                      37.1
         106                     45                    709             0.800                      37.2
         107                     46                    718             0.800                      37.3
         108                     46                    718             0.800                      37.4
         109                     44                    712             0.800                      37.4
         110                     43                    701             0.800                      37.4
         111                     42                    689             0.800                      37.4
         112                     43                    673             0.800                      37.3
         113                     42                    674             0.800                      37.0
         114                     43                    682             0.800                      37.0
         115                     47                    685             0.800                      37.0
         116                     48                    695             0.800                      36.8
         117                     49                    695             0.800                      36.8
         118                     50                    696             0.800                      36.8
         119                     48                    692             0.800                      36.8
         120                     46                    687             0.800                      36.8
         121                     43                    682             0.800                      36.8
         122                     38                    689             0.800                      36.9
         123                     39                    698             0.800                      37.2
         124                     40                    704             0.800                      37.4
         125                     40                    705             0.800                      37.5
         126                     39                    701             0.800                      37.6
         127                     40                    703             0.800                      37.6
         128                     40                    698             0.800                      37.6
         129                     39                    691             0.800                      37.5
         130                     39                    691             0.800                      37.5
         131                     40                    693             0.800                      37.5
         132                     38                    697             0.800                      37.4
         133                     40                    709             0.800                      37.5
         134                     41                    716             0.800                      37.6
         135                     42                    715             0.800                      37.7
         136                     40                    720             0.800                      37.7
         137                     40                    717             0.800                      37.8
         138                     40                    701             0.800                      37.8
         139                     39                    706             0.800                      37.7
         140                     33                    703             0.800                      37.7
         141                     34                    697             0.800                      37.9
         142                     36                    677             0.800                      37.9
         143                     39                    675             0.800                      37.7
         144                     41                    693             0.800                      37.4
         145                     43                    717             0.800                      37.4
         146                     44                    712             0.800                      37.5
         147                     45                    701             0.800                      37.5
         148                     44                    692             0.800                      37.3
         149                     44                    687             0.800                      37.2
         150                     43                    696             0.800                      37.1
         151                     41                    710             0.800                      37.2
         152                     41                    713             0.800                      37.4
         153                     42                    713             0.800                      37.6
         154                     40                    705             0.800                      37.6
         155                     39                    706             0.800                      37.6
         156                     39                    697             0.800                      37.7
         157                     40                    683             0.800                      37.6
         158                     42                    685             0.800                      37.4
         159                     42                    686             0.800                      37.2
         160                     39                    689             0.800                      37.2
         161                     39                    694             0.800                      37.3
         162                     40                    710             0.800                      37.4
         163                     38                    700             0.800                      37.6
         164                     38                    680             0.800                      37.6
         165                     39                    685             0.800                      37.5
         166                     34                    705             0.800                      37.4
         167                     31                    705             0.800                      37.7
         168                     31                    694             0.800                      38.0
         169                     26                    698             0.800                      38.1
         170                     25                    686             0.800                      38.3
         171                     24                    693             0.800                      38.3
         172                     24                    692             0.800                      38.5
         173                     24                    693             0.800                      38.5
         174                     24                    693             0.800                      38.6
         175                     25                    683             0.800                      38.6
         176                     26                    671             0.800                      38.5
         177                     27                    678             0.800                      38.2
         178                     25                    693             0.800                      38.2
         179                     24                    699             0.800                      38.3
         180                     24                    704             0.800                      38.5
         181                     23                    701             0.800                      38.7
         182                     22                    698             0.800                      38.7
         183                     20                    709             0.800                      38.8
         184                     20                    708             0.800                      39.0
         185                     21                    691             0.800                      39.1
         186                     23                    671             0.800                      38.9
         187                     22                    677             0.800                      38.6
         188                     21                    685             0.800                      38.5
         189                     23                    681             0.800                      38.6
         190                     23                    672             0.800                      38.5
